Interval(msec)	40
# of Points	7501
Start Time(min)	0.000
End Time(min)	5.000
R.Time (min)	Intensity
0.00000	-185
0.00067	-192
0.00133	-199
0.00200	-205
0.00267	-212
0.00333	-218
0.00400	-225
0.00467	-232
0.00533	-238
0.00600	-244
0.00667	-251
0.00733	-257
0.00800	-264
0.00867	-270
0.00933	-276
0.01000	-283